Log start time: 2025-03-14 13:31:14
==================================================
ca_14 193.870 Å / ar_14 194.400 Å
fe_16 262.980 Å / s_13 256.690 Å
Processing pair 1 / 2: ca_14 193.87Å / ar_14 194.4Å
Processing pair 2 / 2: fe_16 262.98Å / s_13 256.69Å
T_range min: 5.80, max: 7.00

========== Processing Pair: ca_14 (193.87Å) / ar_14 (194.4Å) ==========


Debug: Electron Density ne=100000000.0, Type=<class 'float'>, Shape=(1,)
Debug: Creating ion objects for ca_14 and ar_14 with ne_array=[1.e+08]
Debug: Successfully created ion objects for ca_14 and ar_14

Debug: Electron Density ne=1000000000.0, Type=<class 'float'>, Shape=(1,)
Debug: Creating ion objects for ca_14 and ar_14 with ne_array=[1.e+09]
Debug: Successfully created ion objects for ca_14 and ar_14

Debug: Electron Density ne=10000000000.0, Type=<class 'float'>, Shape=(1,)
Debug: Creating ion objects for ca_14 and ar_14 with ne_array=[1.e+10]
Debug: Successfully created ion objects for ca_14 and ar_14

========== Processing Pair: fe_16 (262.98Å) / s_13 (256.69Å) ==========


Debug: Electron Density ne=100000000.0, Type=<class 'float'>, Shape=(1,)
Debug: Creating ion objects for fe_16 and s_13 with ne_array=[1.e+08]
Debug: Successfully created ion objects for fe_16 and s_13

Debug: Electron Density ne=1000000000.0, Type=<class 'float'>, Shape=(1,)
Debug: Creating ion objects for fe_16 and s_13 with ne_array=[1.e+09]
Debug: Successfully created ion objects for fe_16 and s_13

Debug: Electron Density ne=10000000000.0, Type=<class 'float'>, Shape=(1,)
Debug: Creating ion objects for fe_16 and s_13 with ne_array=[1.e+10]
Debug: Successfully created ion objects for fe_16 and s_13
('ca_14', 193.87, 'ar_14', 194.4, 100000000.0): Low FIP Emissivity = [1.70839501e-40 5.15413078e-40 1.49168271e-39 4.14712972e-39
 1.10908556e-38 2.85709545e-38 7.10032227e-38 1.70557989e-37
 3.96823090e-37 8.96071616e-37 1.96788330e-36 4.21103722e-36
 8.79272377e-36 1.79379494e-35 3.58020156e-35 6.99999301e-35
 1.34231351e-34 2.52652465e-34 4.67116508e-34 8.48941490e-34
 1.51774837e-33 2.67105475e-33 4.62969121e-33 7.90719845e-33
 1.33140351e-32 2.21120019e-32 3.62385806e-32 5.86254133e-32
 9.36511105e-32 1.47772214e-31 2.30391173e-31 3.55027637e-31
 5.40868741e-31 8.14821989e-31 1.21417806e-30 1.79002142e-30
 2.61148204e-30 3.77091896e-30 5.39032739e-30 7.62899314e-30
 1.06925049e-29 1.48427210e-29 2.04083985e-29 2.77973363e-29
 3.75088469e-29 5.01461704e-29 6.64276342e-29 8.71956687e-29
 1.13423709e-28 1.46218795e-28 1.86818646e-28 2.36572538e-28
 2.96908187e-28 3.69299636e-28 4.55218039e-28 5.56069465e-28
 6.73129449e-28 8.07468479e-28 9.59859660e-28 1.13068782e-27
 1.31985964e-27 1.52669784e-27 1.74985471e-27 1.98727202e-27
 2.23615481e-27 2.49298192e-27 2.75364225e-27 3.01355283e-27
 3.26772271e-27 3.51090275e-27 3.73775519e-27 3.94293194e-27
 4.12127213e-27 4.26809172e-27 4.37938818e-27 4.45201123e-27
 4.48369232e-27 4.47318549e-27 4.42042619e-27 4.32655325e-27
 4.19383632e-27 4.02523177e-27 3.82447199e-27 3.59620118e-27
 3.34579320e-27 3.07913097e-27 2.80239075e-27 2.52174839e-27
 2.24309911e-27 1.97183210e-27 1.71270676e-27 1.47008182e-27
 1.24729663e-27 1.04638776e-27 8.68230674e-28 7.12759724e-28
 5.79325483e-28 4.66608709e-28 3.72746380e-28 2.95586144e-28
 2.32885932e-28 1.82457511e-28 1.42267980e-28 1.10496143e-28
 8.55557523e-29 6.60944343e-29 5.09742822e-29 3.92672679e-29
 3.02291773e-29 2.32680929e-29 1.79159895e-29 1.38035497e-29
 1.06440963e-29 8.21661367e-30 6.35098438e-30 4.91636315e-30
 3.81205036e-30 2.96096029e-30 2.30416371e-30 1.79658783e-30], High FIP Emissivity = [8.87898666e-44 3.12483928e-43 1.06777406e-42 3.54473860e-42
 1.14395216e-41 3.59100320e-41 1.09713697e-40 3.26401064e-40
 9.45990138e-40 2.67217265e-39 7.36009965e-39 1.97759383e-38
 5.18562264e-38 1.32754103e-37 3.31933390e-37 8.10928328e-37
 1.93646984e-36 4.52159807e-36 1.03271435e-35 2.30796640e-35
 5.04886465e-35 1.08149510e-34 2.26917159e-34 4.66515867e-34
 9.40082684e-34 1.85742108e-33 3.59946693e-33 6.84347747e-33
 1.27688587e-32 2.33878100e-32 4.20644141e-32 7.43110505e-32
 1.28982434e-31 2.20024779e-31 3.68978992e-31 6.08479242e-31
 9.87023107e-31 1.57531260e-30 2.47448101e-30 3.82648009e-30
 5.82683341e-30 8.73976416e-30 1.29155012e-29 1.88094959e-29
 2.70027020e-29 3.82217978e-29 5.33572470e-29 7.34770580e-29
 9.98350850e-29 1.33870439e-28 1.77195574e-28 2.31566729e-28
 2.98835985e-28 3.80891008e-28 4.79575772e-28 5.96594908e-28
 7.33385656e-28 8.90977766e-28 1.06987530e-27 1.26993504e-27
 1.49025602e-27 1.72899326e-27 1.98323313e-27 2.24903440e-27
 2.52147143e-27 2.79472493e-27 3.06195741e-27 3.31545620e-27
 3.54714641e-27 3.74898902e-27 3.91341062e-27 4.03367356e-27
 4.10431540e-27 4.12159857e-27 4.08381392e-27 3.99155049e-27
 3.84881177e-27 3.66227909e-27 3.43992034e-27 3.19043544e-27
 2.92282687e-27 2.64680180e-27 2.37151558e-27 2.10445454e-27
 1.85133434e-27 1.61615450e-27 1.40131961e-27 1.20792895e-27
 1.03606941e-27 8.85060504e-28 7.53661075e-28 6.40155013e-28
 5.42672631e-28 4.59379612e-28 3.88529358e-28 3.28489777e-28
 2.77727985e-28 2.34875249e-28 1.98744235e-28 1.68310549e-28
 1.42692148e-28 1.21122317e-28 1.02950158e-28 8.76298232e-29
 7.47037199e-29 6.37878507e-29 5.45582561e-29 4.67438287e-29
 4.01184249e-29 3.44932200e-29 2.97100837e-29 2.56354700e-29
 2.21577463e-29 1.91838772e-29 1.66361674e-29 1.44495886e-29
 1.25695729e-29 1.09502854e-29 9.55316489e-30 8.34570471e-30]
('ca_14', 193.87, 'ar_14', 194.4, 1000000000.0): Low FIP Emissivity = [1.68796063e-40 5.09283864e-40 1.47404660e-39 4.09838210e-39
 1.09612408e-38 2.82389812e-38 7.01829625e-38 1.68598929e-37
 3.92291178e-37 8.85896413e-37 1.94566444e-36 4.16376139e-36
 8.69457037e-36 1.77388412e-35 3.54068685e-35 6.92317162e-35
 1.32766589e-34 2.49911159e-34 4.62077227e-34 8.39835753e-34
 1.50156337e-33 2.64273735e-33 4.58089734e-33 7.82435373e-33
 1.31753693e-32 2.18830758e-32 3.58656415e-32 5.80256968e-32
 9.26988374e-32 1.46278640e-31 2.28076535e-31 3.51482262e-31
 5.35499966e-31 8.06782455e-31 1.20227009e-30 1.77257108e-30
 2.58617584e-30 3.73459565e-30 5.33871472e-30 7.55637988e-30
 1.05913376e-29 1.47031191e-29 2.02175856e-29 2.75389755e-29
 3.71622815e-29 4.96855747e-29 6.58210891e-29 8.64041847e-29
 1.12400219e-28 1.44907157e-28 1.85152708e-28 2.34475400e-28
 2.94291793e-28 3.66064659e-28 4.51254214e-28 5.51256458e-28
 6.67338275e-28 8.00563526e-28 9.51701455e-28 1.12113648e-27
 1.30877900e-27 1.51396030e-27 1.73534674e-27 1.97089971e-27
 2.21784953e-27 2.47270569e-27 2.73139178e-27 2.98936247e-27
 3.24166674e-27 3.48309639e-27 3.70835417e-27 3.91213138e-27
 4.08930393e-27 4.23521970e-27 4.34590178e-27 4.41821806e-27
 4.44991074e-27 4.43973634e-27 4.38762365e-27 4.29469584e-27
 4.16319875e-27 3.99606035e-27 3.79697967e-27 3.57056182e-27
 3.32213751e-27 3.05754415e-27 2.78291186e-27 2.50437184e-27
 2.22777805e-27 1.95848334e-27 1.70121628e-27 1.46030867e-27
 1.23908073e-27 1.03955924e-27 8.62617956e-28 7.08195756e-28
 5.75651464e-28 4.63678156e-28 3.70428194e-28 2.93765950e-28
 2.31466097e-28 1.81356277e-28 1.41417992e-28 1.09842703e-28
 8.50549958e-29 6.57115844e-29 5.06820893e-29 3.90445405e-29
 3.00595231e-29 2.31388917e-29 1.78175686e-29 1.37285340e-29
 1.05868746e-29 8.17292059e-30 6.31757976e-30 4.89078704e-30
 3.79243688e-30 2.94589367e-30 2.29256882e-30 1.78764745e-30], High FIP Emissivity = [8.72090170e-44 3.06964792e-43 1.04906232e-42 3.48309565e-42
 1.12420786e-41 3.52947825e-41 1.07847481e-40 3.20888196e-40
 9.30123207e-40 2.62765815e-39 7.23831392e-39 1.94508774e-38
 5.10094351e-38 1.30600342e-37 3.26582899e-37 7.97940705e-37
 1.90565459e-36 4.45010743e-36 1.01649156e-35 2.27194683e-35
 4.97058752e-35 1.06483931e-34 2.23445991e-34 4.59428064e-34
 9.25898036e-34 1.82958926e-33 3.54590936e-33 6.74236963e-33
 1.25815488e-32 2.30471861e-32 4.14562015e-32 7.32443850e-32
 1.27144540e-31 2.16912641e-31 3.63798513e-31 5.99999544e-31
 9.73370518e-31 1.55368562e-30 2.44076435e-30 3.77473339e-30
 5.74862896e-30 8.62334923e-30 1.27447646e-29 1.85627238e-29
 2.66511184e-29 3.77279016e-29 5.26729842e-29 7.25418903e-29
 9.85740307e-29 1.32192199e-28 1.74990882e-28 2.28707140e-28
 2.95173303e-28 3.76257477e-28 4.73785230e-28 5.89445045e-28
 7.24661734e-28 8.80457860e-28 1.05733674e-27 1.25516202e-27
 1.47304823e-27 1.70917632e-27 1.96067009e-27 2.22363624e-27
 2.49320680e-27 2.76362843e-27 3.02813889e-27 3.27910818e-27
 3.50854553e-27 3.70849315e-27 3.87145135e-27 3.99074504e-27
 4.06095884e-27 4.07838259e-27 4.04131239e-27 3.95031845e-27
 3.80935071e-27 3.62501110e-27 3.40517722e-27 3.15845391e-27
 2.89374824e-27 2.62066772e-27 2.34827640e-27 2.08398833e-27
 1.83346614e-27 1.60067445e-27 1.38799925e-27 1.19653418e-27
 1.02637023e-27 8.76838102e-28 7.46712771e-28 6.34298181e-28
 5.37745559e-28 4.55240618e-28 3.85055451e-28 3.25575123e-28
 2.75282554e-28 2.32822935e-28 1.97020889e-28 1.66862239e-28
 1.41473654e-28 1.20095904e-28 1.02084391e-28 8.68985088e-29
 7.40850277e-29 6.32635833e-29 5.41132557e-29 4.63654628e-29
 3.97961532e-29 3.42182371e-29 2.94750270e-29 2.54341855e-29
 2.19850838e-29 1.90355174e-29 1.65084812e-29 1.43395207e-29
 1.24745465e-29 1.08681234e-29 9.48202398e-30 8.28402175e-30]
('ca_14', 193.87, 'ar_14', 194.4, 10000000000.0): Low FIP Emissivity = [1.57680007e-40 4.75823073e-40 1.37743330e-39 3.83043330e-39
 1.02464492e-38 2.64023656e-38 6.56307593e-38 1.57693603e-37
 3.66988804e-37 8.28921843e-37 1.82090044e-36 3.89756062e-36
 8.14038696e-36 1.66116621e-35 3.31640289e-35 6.48601243e-35
 1.24410024e-34 2.34232490e-34 4.33183595e-34 7.87496884e-34
 1.40830374e-33 2.47916762e-33 4.29835814e-33 7.34347262e-33
 1.23685126e-32 2.05477999e-32 3.36851407e-32 5.45109002e-32
 8.71045513e-32 1.37483732e-31 2.14414940e-31 3.30508037e-31
 5.03665629e-31 7.59003186e-31 1.13134086e-30 1.66839669e-30
 2.43476961e-30 3.51679843e-30 5.02857079e-30 7.11910651e-30
 9.98082091e-30 1.38588940e-29 1.90612751e-29 2.59701185e-29
 3.50535476e-29 4.68773852e-29 6.21157323e-29 8.15595615e-29
 1.06123349e-28 1.36847693e-28 1.74896771e-28 2.21540615e-28
 2.78124269e-28 3.46037820e-28 4.26670363e-28 5.21351716e-28
 6.31290980e-28 7.57506490e-28 9.00738927e-28 1.06136561e-27
 1.23931559e-27 1.43396962e-27 1.64407809e-27 1.86772240e-27
 2.10228918e-27 2.34447922e-27 2.59043435e-27 2.83584770e-27
 3.07602291e-27 3.30601448e-27 3.52078691e-27 3.71528816e-27
 3.88463560e-27 4.02438928e-27 4.13074545e-27 4.20069866e-27
 4.23207079e-27 4.22364542e-27 4.17531942e-27 4.08812569e-27
 3.96416644e-27 3.80619524e-27 3.61770305e-27 3.40304830e-27
 3.16728625e-27 2.91596157e-27 2.65490510e-27 2.38995621e-27
 2.12669724e-27 1.87023948e-27 1.62510485e-27 1.39544235e-27
 1.18443987e-27 9.94053099e-28 8.25137715e-28 6.77656312e-28
 5.51016447e-28 4.43987617e-28 3.54819892e-28 2.81485127e-28
 2.21866515e-28 1.73895194e-28 1.35647080e-28 1.05396916e-28
 8.16408438e-29 6.30958150e-29 4.86815074e-29 3.75163509e-29
 2.88930202e-29 2.22486543e-29 1.71379818e-29 1.32094608e-29
 1.01900890e-29 7.86930389e-30 6.08496506e-30 4.71231016e-30
 3.65527982e-30 2.84031061e-30 2.21114364e-30 1.72473159e-30], High FIP Emissivity = [7.55810551e-44 2.66276699e-43 9.10812688e-43 3.02668238e-42
 9.77715668e-42 3.07207801e-41 9.39462030e-41 2.79745230e-40
 8.11487668e-40 2.29422584e-39 6.32447632e-39 1.70075156e-38
 4.46336192e-38 1.14356790e-37 2.86163393e-37 6.99668021e-37
 1.67211063e-36 3.90742181e-36 8.93147252e-36 1.99764553e-35
 4.37352142e-35 9.37590505e-35 1.96883562e-34 4.05101828e-34
 8.16998961e-34 1.61556824e-33 3.13338844e-33 5.96232212e-33
 1.11340830e-32 2.04106460e-32 3.67407222e-32 6.49609745e-32
 1.12848662e-31 1.92665692e-31 3.23371252e-31 5.33718601e-31
 8.66483561e-31 1.38409413e-30 2.17594607e-30 3.36765536e-30
 5.13243954e-30 7.70464641e-30 1.13952680e-29 1.66092141e-29
 2.38636017e-29 3.38060759e-29 4.72312939e-29 6.50936643e-29
 8.85152909e-29 1.18786048e-28 1.57353594e-28 2.05797663e-28
 2.65787854e-28 3.39030238e-28 4.27196804e-28 5.31839957e-28
 6.54277762e-28 7.95467908e-28 9.55900715e-28 1.13548863e-27
 1.33346530e-27 1.54821629e-27 1.77716443e-27 2.01680318e-27
 2.26273227e-27 2.50973619e-27 2.75166954e-27 2.98158263e-27
 3.19218055e-27 3.37618072e-27 3.52670050e-27 3.63759263e-27
 3.70384454e-27 3.72198850e-27 3.69038131e-27 3.60945452e-27
 3.48273152e-27 3.31617091e-27 3.11691381e-27 2.89278487e-27
 2.65190441e-27 2.40305427e-27 2.15453853e-27 1.91316602e-27
 1.68415264e-27 1.47116565e-27 1.27642878e-27 1.10098149e-27
 9.44942178e-28 8.07728820e-28 6.88245523e-28 5.84959204e-28
 4.96192123e-28 4.20294355e-28 3.55691862e-28 3.00911321e-28
 2.54566474e-28 2.15418009e-28 1.82389892e-28 1.54552950e-28
 1.31106442e-28 1.11353626e-28 9.47025520e-29 8.06564864e-29
 6.87987440e-29 5.87794320e-29 5.03031569e-29 4.31225663e-29
 3.70312144e-29 3.18566273e-29 2.74542836e-29 2.37020508e-29
 2.04977807e-29 1.77563003e-29 1.54064452e-29 1.33886241e-29
 1.16528064e-29 1.01569484e-29 8.86566134e-30 7.74909896e-30]
('fe_16', 262.98, 's_13', 256.69, 100000000.0): Low FIP Emissivity = [1.27186737e-41 4.31799285e-41 1.42881237e-40 4.61055279e-40
 1.45159816e-39 4.46155563e-39 1.33931635e-38 3.92803991e-38
 1.12586790e-37 3.15457294e-37 8.64286766e-37 2.31606990e-36
 6.07159630e-36 1.55734987e-35 3.90909351e-35 9.60388151e-35
 2.30972567e-34 5.43807514e-34 1.25349799e-33 2.82890274e-33
 6.25101451e-33 1.35253466e-32 2.86583835e-32 5.94705791e-32
 1.20876405e-31 2.40664160e-31 4.69414629e-31 8.97075503e-31
 1.67989166e-30 3.08294732e-30 5.54543994e-30 9.77765977e-30
 1.69001238e-29 2.86368778e-29 4.75737005e-29 7.74886437e-29
 1.23749981e-28 1.93759352e-28 2.97414359e-28 4.47521725e-28
 6.60069492e-28 9.54147082e-28 1.35129542e-27 1.87433801e-27
 2.54543150e-27 3.38333685e-27 4.40056958e-27 5.60064868e-27
 6.97469305e-27 8.49886041e-27 1.01331193e-26 1.18277673e-26
 1.35318962e-26 1.51931524e-26 1.67612937e-26 1.81918233e-26
 1.94508296e-26 2.05176756e-26 2.13837500e-26 2.20517354e-26
 2.25339099e-26 2.28435416e-26 2.29925993e-26 2.29968953e-26
 2.28752355e-26 2.26480419e-26 2.23315333e-26 2.19378538e-26
 2.14792542e-26 2.09679310e-26 2.04155635e-26 1.98307592e-26
 1.92197459e-26 1.85884485e-26 1.79424897e-26 1.72870652e-26
 1.66260061e-26 1.59622155e-26 1.52984355e-26 1.46372510e-26
 1.39810619e-26 1.33319069e-26 1.26915663e-26 1.20616934e-26
 1.14438125e-26 1.08392397e-26 1.02484597e-26 9.67160873e-27
 9.10893492e-27 8.56079298e-27 8.02762871e-27 7.51010255e-27
 7.00896006e-27 6.52490892e-27 6.05860247e-27 5.61058429e-27
 5.18102412e-27 4.76998735e-27 4.37758943e-27 4.00397233e-27
 3.64927237e-27 3.31355624e-27 2.99685667e-27 2.69917978e-27
 2.42048544e-27 2.16065430e-27 1.91941386e-27 1.69642234e-27
 1.49129236e-27 1.30357629e-27 1.13274822e-27 9.78175912e-28
 8.39161735e-28 7.14953788e-28 6.04744989e-28 5.07673258e-28
 4.22822859e-28 3.49248141e-28 2.85990070e-28 2.32085998e-28], High FIP Emissivity = [1.18892356e-38 3.64614171e-38 1.08614316e-37 3.14415575e-37
 8.84858679e-37 2.42206601e-36 6.45103982e-36 1.67261334e-35
 4.22351453e-35 1.03909546e-34 2.49189782e-34 5.82760476e-34
 1.32963196e-33 2.96108966e-33 6.43943495e-33 1.36809895e-32
 2.84091160e-32 5.76851369e-32 1.14585948e-31 2.22769220e-31
 4.24063069e-31 7.90766207e-31 1.44507052e-30 2.58900333e-30
 4.54944131e-30 7.84412645e-30 1.32760193e-29 2.20646060e-29
 3.60243950e-29 5.78011604e-29 9.11764627e-29 1.41446714e-28
 2.15877034e-28 3.24235717e-28 4.79394886e-28 6.97977175e-28
 1.00100081e-27 1.41446097e-27 1.96982437e-27 2.70433601e-27
 3.66105759e-27 4.88831281e-27 6.43838578e-27 8.36597568e-27
 1.07259027e-26 1.35701343e-26 1.69430606e-26 2.08755736e-26
 2.53806058e-26 3.04481331e-26 3.60405313e-26 4.20845730e-26
 4.84648064e-26 5.50260977e-26 6.15767014e-26 6.78949620e-26
 7.37452621e-26 7.88943971e-26 8.31219315e-26 8.62351706e-26
 8.80851106e-26 8.86146716e-26 8.78649002e-26 8.59333043e-26
 8.29609101e-26 7.91198231e-26 7.46128240e-26 6.96544283e-26
 6.44442799e-26 5.91580266e-26 5.39418512e-26 4.89041364e-26
 4.41210423e-26 3.96458461e-26 3.55117966e-26 3.17346674e-26
 2.83098535e-26 2.52210014e-26 2.24483801e-26 1.99702083e-26
 1.77634777e-26 1.58032893e-26 1.40649208e-26 1.25254425e-26
 1.11637611e-26 9.96051523e-27 8.89741339e-27 7.95779887e-27
 7.12698170e-27 6.39201946e-27 5.74148597e-27 5.16510102e-27
 4.65378268e-27 4.19962515e-27 3.79574023e-27 3.43610826e-27
 3.11539498e-27 2.82892625e-27 2.57263779e-27 2.34299006e-27
 2.13688721e-27 1.95157578e-27 1.78463997e-27 1.63397679e-27
 1.49775204e-27 1.37436079e-27 1.26238738e-27 1.16058898e-27
 1.06787646e-27 9.83293610e-28 9.05996503e-28 8.35228346e-28
 7.70320284e-28 7.10684705e-28 6.55804609e-28 6.05225286e-28
 5.58550055e-28 5.15428043e-28 4.75546900e-28 4.38628123e-28]
('fe_16', 262.98, 's_13', 256.69, 1000000000.0): Low FIP Emissivity = [1.27186738e-41 4.31799290e-41 1.42881239e-40 4.61055284e-40
 1.45159817e-39 4.46155567e-39 1.33931637e-38 3.92803995e-38
 1.12586792e-37 3.15457297e-37 8.64286775e-37 2.31606993e-36
 6.07159636e-36 1.55734989e-35 3.90909355e-35 9.60388160e-35
 2.30972569e-34 5.43807520e-34 1.25349801e-33 2.82890277e-33
 6.25101457e-33 1.35253467e-32 2.86583837e-32 5.94705796e-32
 1.20876406e-31 2.40664162e-31 4.69414633e-31 8.97075510e-31
 1.67989167e-30 3.08294734e-30 5.54543999e-30 9.77765985e-30
 1.69001239e-29 2.86368780e-29 4.75737008e-29 7.74886442e-29
 1.23749982e-28 1.93759354e-28 2.97414361e-28 4.47521728e-28
 6.60069496e-28 9.54147088e-28 1.35129543e-27 1.87433802e-27
 2.54543152e-27 3.38333687e-27 4.40056961e-27 5.60064872e-27
 6.97469309e-27 8.49886045e-27 1.01331194e-26 1.18277674e-26
 1.35318962e-26 1.51931524e-26 1.67612938e-26 1.81918233e-26
 1.94508296e-26 2.05176756e-26 2.13837500e-26 2.20517355e-26
 2.25339100e-26 2.28435416e-26 2.29925994e-26 2.29968954e-26
 2.28752356e-26 2.26480419e-26 2.23315333e-26 2.19378538e-26
 2.14792542e-26 2.09679310e-26 2.04155635e-26 1.98307592e-26
 1.92197459e-26 1.85884485e-26 1.79424896e-26 1.72870651e-26
 1.66260060e-26 1.59622154e-26 1.52984355e-26 1.46372509e-26
 1.39810618e-26 1.33319069e-26 1.26915662e-26 1.20616934e-26
 1.14438125e-26 1.08392396e-26 1.02484597e-26 9.67160866e-27
 9.10893485e-27 8.56079292e-27 8.02762865e-27 7.51010249e-27
 7.00896000e-27 6.52490886e-27 6.05860241e-27 5.61058424e-27
 5.18102407e-27 4.76998730e-27 4.37758939e-27 4.00397229e-27
 3.64927234e-27 3.31355621e-27 2.99685664e-27 2.69917976e-27
 2.42048541e-27 2.16065428e-27 1.91941384e-27 1.69642232e-27
 1.49129234e-27 1.30357627e-27 1.13274821e-27 9.78175901e-28
 8.39161726e-28 7.14953780e-28 6.04744982e-28 5.07673252e-28
 4.22822855e-28 3.49248137e-28 2.85990067e-28 2.32085995e-28], High FIP Emissivity = [1.17036656e-38 3.58909327e-38 1.06911083e-37 3.09474871e-37
 8.70927806e-37 2.38386877e-36 6.34914805e-36 1.64615945e-35
 4.15663811e-35 1.02262602e-34 2.45237068e-34 5.73511089e-34
 1.30852015e-33 2.91406482e-33 6.33717274e-33 1.34637755e-32
 2.79582543e-32 5.67702257e-32 1.12770052e-31 2.19242460e-31
 4.17357593e-31 7.78279600e-31 1.42228799e-30 2.54825757e-30
 4.47798085e-30 7.72117550e-30 1.30684051e-29 2.17204070e-29
 3.54639182e-29 5.69044172e-29 8.97661733e-29 1.39265814e-28
 2.12559693e-28 3.19270839e-28 4.72081337e-28 6.87370339e-28
 9.85850855e-28 1.39314416e-27 1.94026913e-27 2.66394688e-27
 3.60664147e-27 4.81601637e-27 6.34365503e-27 8.24354083e-27
 1.05697984e-26 1.33737638e-26 1.66993282e-26 2.05770988e-26
 2.50199960e-26 3.00183189e-26 3.55351558e-26 4.14984794e-26
 4.77945984e-26 5.42706425e-26 6.07375682e-26 6.69767479e-26
 7.27556851e-26 7.78441594e-26 8.20244438e-26 8.51060835e-26
 8.69416518e-26 8.74743839e-26 8.67443520e-26 8.48473836e-26
 8.19223144e-26 7.81387320e-26 7.36965974e-26 6.88075567e-26
 6.36686644e-26 5.84533617e-26 5.33060592e-26 4.83338828e-26
 4.36121633e-26 3.91936513e-26 3.51113246e-26 3.13809002e-26
 2.79979517e-26 2.49464323e-26 2.22069475e-26 1.97580659e-26
 1.75771320e-26 1.56396084e-26 1.39211203e-26 1.23990557e-26
 1.10526088e-26 9.86267839e-27 8.81121255e-27 7.88176930e-27
